# SMDR (Standard Model in Dimensional Regularization) v1.0
# Q = 173.100000;
# gauge  couplings: g3 = 1.163624;      g = 0.647660;      gp = 0.358539;
# Yukawa couplings: yt = 0.934801;     yb = 0.015480;    ytau = 0.00999444;
#                   yc = 0.0033820;    ys = 0.00029094;   ymu = 0.000588380;
#                   yu = 0.0000067228; yd = 0.000014610;   ye = 0.00000279298;
# Higgs self-coupling lambda = 0.126038;
# Higgs VEV = 246.601091;
# Delta_hadronic^(5) alpha(MZ) = 0.027640
# 
# COLUMN DESCRIPTIONS:
# 1  Q (from SMDR_mcmc_EXPT down to 1 GeV)
# 2  alphaS
# 3  alpha
# 4  ms
# 5  md
# 6  mu
# 7  mmuon
# 8  melectron
# 
# In the paper: arXiv:1907.02500
# Standard Model parameters in the tadpole-free pure MSbar scheme
# by Stephen P. Martin and David G. Robertson,
# Figure 2.2a graphs columns 2 and 3 as a function of column 1, and
# Figure 2.2b graphs columns 4, 5, 6, 7, and 8 as a function of column 1.
# 
1.270000  0.38998817  0.00746803  0.10912226  0.00547993  0.00253611  0.10448838  0.00049600
1.265247  0.39107778  0.00746784  0.10930042  0.00548888  0.00254026  0.10448977  0.00049600
1.260513  0.39217461  0.00746765  0.10947969  0.00549788  0.00254444  0.10449117  0.00049601
1.255796  0.39327873  0.00746746  0.10966007  0.00550694  0.00254865  0.10449256  0.00049602
1.251096  0.39439023  0.00746726  0.10984160  0.00551606  0.00255288  0.10449396  0.00049602
1.246414  0.39550919  0.00746707  0.11002427  0.00552523  0.00255714  0.10449535  0.00049603
1.241750  0.39663569  0.00746688  0.11020809  0.00553446  0.00256142  0.10449674  0.00049604
1.237103  0.39776983  0.00746669  0.11039310  0.00554375  0.00256573  0.10449814  0.00049604
1.232474  0.39891169  0.00746650  0.11057929  0.00555310  0.00257007  0.10449953  0.00049605
1.227861  0.40006135  0.00746631  0.11076668  0.00556251  0.00257444  0.10450092  0.00049606
1.223267  0.40121890  0.00746611  0.11095528  0.00557198  0.00257884  0.10450232  0.00049606
1.218689  0.40238445  0.00746592  0.11114511  0.00558152  0.00258326  0.10450371  0.00049607
1.214128  0.40355807  0.00746573  0.11133619  0.00559111  0.00258772  0.10450511  0.00049608
1.209585  0.40473987  0.00746554  0.11152852  0.00560077  0.00259220  0.10450650  0.00049608
1.205058  0.40592994  0.00746534  0.11172213  0.00561049  0.00259671  0.10450789  0.00049609
1.200549  0.40712837  0.00746515  0.11191702  0.00562028  0.00260125  0.10450929  0.00049610
1.196056  0.40833527  0.00746496  0.11211322  0.00563013  0.00260583  0.10451068  0.00049610
1.191580  0.40955074  0.00746477  0.11231074  0.00564005  0.00261043  0.10451207  0.00049611
1.187121  0.41077488  0.00746458  0.11250959  0.00565004  0.00261507  0.10451347  0.00049612
1.182679  0.41200779  0.00746438  0.11270980  0.00566009  0.00261973  0.10451486  0.00049612
1.178253  0.41324958  0.00746419  0.11291137  0.00567021  0.00262443  0.10451625  0.00049613
1.173844  0.41450037  0.00746400  0.11311433  0.00568041  0.00262916  0.10451765  0.00049614
1.169451  0.41576024  0.00746381  0.11331869  0.00569067  0.00263393  0.10451904  0.00049614
1.165074  0.41702933  0.00746361  0.11352447  0.00570100  0.00263872  0.10452043  0.00049615
1.160715  0.41830775  0.00746342  0.11373169  0.00571141  0.00264355  0.10452183  0.00049615
1.156371  0.41959560  0.00746323  0.11394037  0.00572189  0.00264841  0.10452322  0.00049616
1.152044  0.42089301  0.00746303  0.11415051  0.00573244  0.00265331  0.10452462  0.00049617
1.147732  0.42220009  0.00746284  0.11436216  0.00574307  0.00265825  0.10452601  0.00049617
1.143437  0.42351698  0.00746265  0.11457531  0.00575378  0.00266321  0.10452740  0.00049618
1.139158  0.42484379  0.00746246  0.11479000  0.00576456  0.00266822  0.10452880  0.00049619
1.134895  0.42618065  0.00746226  0.11500624  0.00577542  0.00267326  0.10453019  0.00049619
1.130648  0.42752769  0.00746207  0.11522405  0.00578635  0.00267833  0.10453158  0.00049620
1.126417  0.42888505  0.00746188  0.11544346  0.00579737  0.00268345  0.10453298  0.00049621
1.122202  0.43025284  0.00746168  0.11566448  0.00580847  0.00268860  0.10453437  0.00049621
1.118003  0.43163122  0.00746149  0.11588713  0.00581965  0.00269379  0.10453576  0.00049622
1.113819  0.43302032  0.00746130  0.11611144  0.00583092  0.00269901  0.10453716  0.00049623
1.109651  0.43442029  0.00746111  0.11633744  0.00584227  0.00270428  0.10453855  0.00049623
1.105498  0.43583126  0.00746091  0.11656513  0.00585370  0.00270959  0.10453994  0.00049624
1.101361  0.43725338  0.00746072  0.11679455  0.00586522  0.00271493  0.10454134  0.00049625
1.097240  0.43868681  0.00746053  0.11702572  0.00587683  0.00272032  0.10454273  0.00049625
1.093134  0.44013169  0.00746033  0.11725867  0.00588853  0.00272575  0.10454412  0.00049626
1.089043  0.44158818  0.00746014  0.11749341  0.00590032  0.00273122  0.10454552  0.00049627
1.084967  0.44305645  0.00745994  0.11772998  0.00591220  0.00273673  0.10454691  0.00049627
1.080907  0.44453665  0.00745975  0.11796839  0.00592417  0.00274229  0.10454830  0.00049628
1.076862  0.44602895  0.00745956  0.11820869  0.00593624  0.00274789  0.10454969  0.00049629
1.072832  0.44753352  0.00745936  0.11845088  0.00594840  0.00275353  0.10455109  0.00049629
1.068818  0.44905052  0.00745917  0.11869500  0.00596066  0.00275922  0.10455248  0.00049630
1.064818  0.45058015  0.00745898  0.11894108  0.00597302  0.00276496  0.10455387  0.00049631
1.060833  0.45212256  0.00745878  0.11918915  0.00598547  0.00277074  0.10455527  0.00049631
1.056863  0.45367795  0.00745859  0.11943923  0.00599803  0.00277657  0.10455666  0.00049632
1.052908  0.45524651  0.00745839  0.11969136  0.00601069  0.00278244  0.10455805  0.00049633
1.048968  0.45682842  0.00745820  0.11994556  0.00602346  0.00278836  0.10455945  0.00049633
1.045043  0.45842388  0.00745801  0.12020186  0.00603633  0.00279434  0.10456084  0.00049634
1.041132  0.46003309  0.00745781  0.12046030  0.00604931  0.00280036  0.10456223  0.00049635
1.037236  0.46165624  0.00745762  0.12072092  0.00606240  0.00280643  0.10456363  0.00049635
1.033354  0.46329356  0.00745742  0.12098373  0.00607559  0.00281256  0.10456502  0.00049636
1.029487  0.46494524  0.00745723  0.12124878  0.00608891  0.00281873  0.10456641  0.00049637
1.025635  0.46661151  0.00745703  0.12151611  0.00610233  0.00282496  0.10456780  0.00049637
1.021797  0.46829258  0.00745684  0.12178573  0.00611587  0.00283124  0.10456920  0.00049638
1.017973  0.46998869  0.00745664  0.12205771  0.00612953  0.00283758  0.10457059  0.00049639
1.014164  0.47170006  0.00745645  0.12233206  0.00614331  0.00284397  0.10457198  0.00049639
1.010368  0.47342693  0.00745626  0.12260882  0.00615720  0.00285042  0.10457338  0.00049640
1.006587  0.47516954  0.00745606  0.12288805  0.00617123  0.00285693  0.10457477  0.00049641
1.002820  0.47692814  0.00745587  0.12316976  0.00618537  0.00286349  0.10457616  0.00049641
0.999068  0.47870297  0.00745567  0.12345402  0.00619965  0.00287012  0.10457755  0.00049642
0.995329  0.48049430  0.00745548  0.12374084  0.00621405  0.00287680  0.10457895  0.00049643
0.991604  0.48230240  0.00745528  0.12403029  0.00622859  0.00288354  0.10458034  0.00049643
0.987894  0.48412753  0.00745509  0.12432241  0.00624326  0.00289035  0.10458173  0.00049644
0.984197  0.48596997  0.00745489  0.12461722  0.00625806  0.00289722  0.10458313  0.00049645
0.980514  0.48783000  0.00745470  0.12491479  0.00627301  0.00290415  0.10458452  0.00049645
0.976844  0.48970791  0.00745450  0.12521516  0.00628809  0.00291115  0.10458591  0.00049646
0.973189  0.49160400  0.00745430  0.12551838  0.00630332  0.00291821  0.10458730  0.00049647
0.969547  0.49351857  0.00745411  0.12582450  0.00631869  0.00292535  0.10458870  0.00049647
0.965919  0.49545194  0.00745391  0.12613355  0.00633421  0.00293255  0.10459009  0.00049648
0.962304  0.49740442  0.00745372  0.12644561  0.00634988  0.00293982  0.10459148  0.00049649
0.958703  0.49937635  0.00745352  0.12676072  0.00636571  0.00294716  0.10459288  0.00049649
0.955115  0.50136805  0.00745333  0.12707893  0.00638169  0.00295457  0.10459427  0.00049650
0.951541  0.50337987  0.00745313  0.12740030  0.00639782  0.00296206  0.10459566  0.00049651
0.947980  0.50541217  0.00745293  0.12772489  0.00641412  0.00296962  0.10459705  0.00049651
0.944433  0.50746529  0.00745274  0.12805276  0.00643059  0.00297726  0.10459845  0.00049652
0.940898  0.50953963  0.00745254  0.12838396  0.00644722  0.00298498  0.10459984  0.00049653
0.937377  0.51163555  0.00745234  0.12871856  0.00646402  0.00299277  0.10460123  0.00049653
0.933870  0.51375344  0.00745215  0.12905661  0.00648100  0.00300065  0.10460262  0.00049654
0.930375  0.51589371  0.00745195  0.12939820  0.00649815  0.00300860  0.10460402  0.00049655
0.926893  0.51805677  0.00745176  0.12974337  0.00651549  0.00301665  0.10460541  0.00049655
0.923425  0.52024304  0.00745156  0.13009221  0.00653301  0.00302477  0.10460680  0.00049656
0.919969  0.52245295  0.00745136  0.13044478  0.00655071  0.00303299  0.10460819  0.00049656
0.916526  0.52468695  0.00745116  0.13080115  0.00656861  0.00304129  0.10460959  0.00049657
0.913096  0.52694550  0.00745097  0.13116140  0.00658670  0.00304968  0.10461098  0.00049658
0.909679  0.52922907  0.00745077  0.13152561  0.00660499  0.00305816  0.10461237  0.00049658
0.906275  0.53153814  0.00745057  0.13189385  0.00662348  0.00306674  0.10461376  0.00049659
0.902884  0.53387321  0.00745038  0.13226621  0.00664218  0.00307542  0.10461516  0.00049660
0.899505  0.53623479  0.00745018  0.13264276  0.00666109  0.00308419  0.10461655  0.00049660
0.896139  0.53862341  0.00744998  0.13302360  0.00668022  0.00309306  0.10461794  0.00049661
0.892785  0.54103961  0.00744978  0.13340882  0.00669956  0.00310203  0.10461933  0.00049662
0.889444  0.54348395  0.00744959  0.13379850  0.00671913  0.00311111  0.10462073  0.00049662
0.886116  0.54595700  0.00744939  0.13419274  0.00673893  0.00312029  0.10462212  0.00049663
0.882800  0.54845935  0.00744919  0.13459163  0.00675896  0.00312959  0.10462351  0.00049664
0.879496  0.55099162  0.00744899  0.13499528  0.00677923  0.00313899  0.10462490  0.00049664
0.876205  0.55355443  0.00744879  0.13540379  0.00679975  0.00314850  0.10462629  0.00049665
0.872926  0.55614843  0.00744860  0.13581727  0.00682051  0.00315813  0.10462769  0.00049666
0.869659  0.55877428  0.00744840  0.13623582  0.00684153  0.00316788  0.10462908  0.00049666
0.866405  0.56143268  0.00744820  0.13665956  0.00686281  0.00317775  0.10463047  0.00049667
0.863163  0.56412434  0.00744800  0.13708861  0.00688435  0.00318775  0.10463186  0.00049668
0.859933  0.56684998  0.00744780  0.13752308  0.00690617  0.00319787  0.10463326  0.00049668
0.856715  0.56961036  0.00744760  0.13796310  0.00692827  0.00320812  0.10463465  0.00049669
0.853509  0.57240627  0.00744740  0.13840881  0.00695065  0.00321850  0.10463604  0.00049670
0.850315  0.57523852  0.00744720  0.13886033  0.00697333  0.00322902  0.10463743  0.00049670
0.847133  0.57810793  0.00744701  0.13931780  0.00699630  0.00323967  0.10463882  0.00049671
0.843962  0.58101537  0.00744681  0.13978137  0.00701958  0.00325047  0.10464022  0.00049672
0.840804  0.58396174  0.00744661  0.14025118  0.00704317  0.00326141  0.10464161  0.00049672
0.837658  0.58694795  0.00744641  0.14072738  0.00706709  0.00327250  0.10464300  0.00049673
0.834523  0.58997495  0.00744621  0.14121014  0.00709133  0.00328375  0.10464439  0.00049674
0.831400  0.59304375  0.00744601  0.14169962  0.00711591  0.00329515  0.10464578  0.00049674
0.828289  0.59615535  0.00744581  0.14219599  0.00714084  0.00330671  0.10464718  0.00049675
0.825189  0.59931083  0.00744561  0.14269942  0.00716612  0.00331843  0.10464857  0.00049676
0.822101  0.60251128  0.00744541  0.14321011  0.00719177  0.00333033  0.10464996  0.00049676
0.819025  0.60575784  0.00744521  0.14372823  0.00721778  0.00334239  0.10465135  0.00049677
0.815960  0.60905169  0.00744500  0.14425398  0.00724419  0.00335464  0.10465274  0.00049678
0.812906  0.61239406  0.00744480  0.14478758  0.00727098  0.00336706  0.10465414  0.00049678
0.809864  0.61578623  0.00744460  0.14532924  0.00729818  0.00337968  0.10465553  0.00049679
0.806834  0.61922951  0.00744440  0.14587917  0.00732580  0.00339249  0.10465692  0.00049680
0.803814  0.62272529  0.00744420  0.14643760  0.00735384  0.00340549  0.10465831  0.00049680
0.800806  0.62627499  0.00744400  0.14700478  0.00738233  0.00341870  0.10465970  0.00049681
0.797809  0.62988010  0.00744380  0.14758096  0.00741126  0.00343212  0.10466110  0.00049682
0.794824  0.63354217  0.00744359  0.14816639  0.00744066  0.00344575  0.10466249  0.00049682
0.791850  0.63726280  0.00744339  0.14876135  0.00747054  0.00345961  0.10466388  0.00049683
0.788886  0.64104369  0.00744319  0.14936612  0.00750091  0.00347369  0.10466527  0.00049684
0.785934  0.64488657  0.00744299  0.14998100  0.00753179  0.00348801  0.10466666  0.00049684
0.782993  0.64879328  0.00744279  0.15060629  0.00756319  0.00350257  0.10466805  0.00049685
0.780063  0.65276571  0.00744258  0.15124231  0.00759513  0.00351738  0.10466945  0.00049686
0.777144  0.65680586  0.00744238  0.15188940  0.00762762  0.00353245  0.10467084  0.00049686
0.774236  0.66091581  0.00744218  0.15254792  0.00766069  0.00354779  0.10467223  0.00049687
0.771338  0.66509772  0.00744197  0.15321823  0.00769436  0.00356340  0.10467362  0.00049688
0.768452  0.66935388  0.00744177  0.15390071  0.00772863  0.00357929  0.10467501  0.00049688
0.765576  0.67368665  0.00744156  0.15459577  0.00776353  0.00359548  0.10467640  0.00049689
0.762711  0.67809853  0.00744136  0.15530383  0.00779909  0.00361196  0.10467780  0.00049690
0.759857  0.68259213  0.00744116  0.15602535  0.00783532  0.00362877  0.10467919  0.00049690
0.757013  0.68717018  0.00744095  0.15676077  0.00787226  0.00364589  0.10468058  0.00049691
0.754180  0.69183557  0.00744075  0.15751060  0.00790991  0.00366335  0.10468197  0.00049692
0.751358  0.69659132  0.00744054  0.15827535  0.00794832  0.00368116  0.10468336  0.00049692
0.748546  0.70144059  0.00744034  0.15905555  0.00798750  0.00369933  0.10468475  0.00049693
0.745745  0.70638674  0.00744013  0.15985180  0.00802748  0.00371787  0.10468615  0.00049693
0.742954  0.71143327  0.00743993  0.16066467  0.00806830  0.00373679  0.10468754  0.00049694
0.740174  0.71658389  0.00743972  0.16149482  0.00810999  0.00375612  0.10468893  0.00049695
0.737404  0.72184252  0.00743951  0.16234291  0.00815258  0.00377587  0.10469032  0.00049695
0.734645  0.72721329  0.00743931  0.16320965  0.00819611  0.00379605  0.10469171  0.00049696
0.731896  0.73270055  0.00743910  0.16409580  0.00824061  0.00381668  0.10469310  0.00049697
0.729157  0.73830893  0.00743889  0.16500214  0.00828612  0.00383779  0.10469450  0.00049697
0.726428  0.74404331  0.00743868  0.16592952  0.00833270  0.00385938  0.10469589  0.00049698
0.723710  0.74990887  0.00743848  0.16687884  0.00838037  0.00388148  0.10469728  0.00049699
0.721001  0.75591112  0.00743827  0.16785104  0.00842919  0.00390412  0.10469867  0.00049699
0.718303  0.76205590  0.00743806  0.16884713  0.00847921  0.00392731  0.10470006  0.00049700
0.715615  0.76834942  0.00743785  0.16986820  0.00853049  0.00395108  0.10470145  0.00049701
0.712937  0.77479829  0.00743764  0.17091538  0.00858308  0.00397547  0.10470284  0.00049701
0.710269  0.78140959  0.00743743  0.17198992  0.00863704  0.00400048  0.10470423  0.00049702
0.707611  0.78819085  0.00743722  0.17309311  0.00869244  0.00402617  0.10470563  0.00049703
0.704963  0.79515012  0.00743701  0.17422635  0.00874935  0.00405255  0.10470702  0.00049703
0.702325  0.80229603  0.00743680  0.17539116  0.00880784  0.00407967  0.10470841  0.00049704
0.699697  0.80963784  0.00743659  0.17658915  0.00886800  0.00410756  0.10470980  0.00049705
0.697079  0.81718549  0.00743638  0.17782205  0.00892992  0.00413626  0.10471119  0.00049705
0.694470  0.82494968  0.00743617  0.17909173  0.00899368  0.00416582  0.10471258  0.00049706
0.691871  0.83294193  0.00743595  0.18040022  0.00905939  0.00419629  0.10471397  0.00049707
0.689282  0.84117468  0.00743574  0.18174969  0.00912716  0.00422770  0.10471537  0.00049707
0.686703  0.84966141  0.00743553  0.18314252  0.00919710  0.00426013  0.10471676  0.00049708
0.684133  0.85841670  0.00743531  0.18458126  0.00926935  0.00429362  0.10471815  0.00049709
0.681573  0.86745641  0.00743510  0.18606871  0.00934405  0.00432825  0.10471954  0.00049709
0.679022  0.87679780  0.00743488  0.18760791  0.00942135  0.00436408  0.10472093  0.00049710
0.676481  0.88645970  0.00743467  0.18920218  0.00950141  0.00440119  0.10472232  0.00049711
0.673950  0.89646270  0.00743445  0.19085517  0.00958442  0.00443967  0.10472371  0.00049711
0.671427  0.90682939  0.00743423  0.19257087  0.00967058  0.00447961  0.10472510  0.00049712
0.668915  0.91758464  0.00743402  0.19435368  0.00976011  0.00452112  0.10472649  0.00049713
0.666412  0.92875582  0.00743380  0.19620848  0.00985325  0.00456429  0.10472789  0.00049713
0.663918  0.94037328  0.00743358  0.19814064  0.00995028  0.00460927  0.10472928  0.00049714
0.661433  0.95247067  0.00743336  0.20015616  0.01005150  0.00465619  0.10473067  0.00049715
0.658958  0.96508548  0.00743314  0.20226172  0.01015724  0.00470520  0.10473206  0.00049715
0.656492  0.97825967  0.00743292  0.20446481  0.01026787  0.00475648  0.10473345  0.00049716
0.654035  0.99204031  0.00743270  0.20677383  0.01038383  0.00481023  0.10473484  0.00049717
0.651588  1.00648052  0.00743247  0.20919830  0.01050558  0.00486667  0.10473623  0.00049717
0.649150  1.02164048  0.00743225  0.21174898  0.01063367  0.00492604  0.10473762  0.00049718
0.646720  1.03758874  0.00743202  0.21443820  0.01076872  0.00498863  0.10473901  0.00049719
0.644300  1.05440379  0.00743180  0.21728005  0.01091143  0.00505478  0.10474040  0.00049719
0.641889  1.07217610  0.00743157  0.22029080  0.01106263  0.00512486  0.10474180  0.00049720
0.639487  1.09101057  0.00743134  0.22348937  0.01122325  0.00519931  0.10474319  0.00049721
0.637094  1.11102977  0.00743111  0.22689788  0.01139442  0.00527864  0.10474458  0.00049721
0.634710  1.13237803  0.00743088  0.23054241  0.01157744  0.00536347  0.10474597  0.00049722
0.632335  1.15522684  0.00743065  0.23445398  0.01177388  0.00545451  0.10474736  0.00049723
0.629968  1.17978194  0.00743041  0.23866990  0.01198559  0.00555264  0.10474875  0.00049723
0.627611  1.20629295  0.00743018  0.24323547  0.01221487  0.00565890  0.10475014  0.00049724
0.625262  1.23506646  0.00742994  0.24820641  0.01246450  0.00577460  0.10475153  0.00049725
0.622922  1.26648450  0.00742970  0.25365224  0.01273798  0.00590134  0.10475292  0.00049725
0.620591  1.30103082  0.00742945  0.25966114  0.01303974  0.00604119  0.10475431  0.00049726
0.618269  1.33932975  0.00742921  0.26634704  0.01337549  0.00619680  0.10475571  0.00049727
0.615955  1.38220508  0.00742896  0.27386049  0.01375280  0.00637166  0.10475710  0.00049727
0.613650  1.43077296  0.00742871  0.28240570  0.01418193  0.00657054  0.10475849  0.00049728
0.611354  1.48659500  0.00742845  0.29226875  0.01467723  0.00680008  0.10475988  0.00049728
0.609066  1.55194460  0.00742819  0.30386656  0.01525966  0.00706999  0.10476127  0.00049729
0.606787  1.63030330  0.00742792  0.31783827  0.01596129  0.00739514  0.10476266  0.00049730
0.604516  1.72737078  0.00742764  0.33523107  0.01683473  0.00779990  0.10476405  0.00049730
0.602254  1.85338127  0.00742736  0.35792629  0.01797444  0.00832805  0.10476544  0.00049731
0.600000  2.02941580  0.00742705  0.38979982  0.01957508  0.00906979  0.10476683  0.00049732
